% Version 1.00
%
%time[s];Trc1_S11[dB];
-1.000000000000000E-009,-5.197909748673506E+000,
-9.333166666666668E-010,-5.192281099990323E+000,
-8.666333333333334E-010,-5.186698145455083E+000,
-7.999500000000001E-010,-5.181160866404442E+000,
-7.332666666666668E-010,-5.175669244326071E+000,
-6.665833333333335E-010,-5.170223260858315E+000,
-5.999000000000001E-010,-5.164822897789859E+000,
-5.332166666666668E-010,-5.159468137059406E+000,
-4.665333333333334E-010,-5.154158960755335E+000,
-3.998500000000001E-010,-5.148895351115391E+000,
-3.331666666666668E-010,-5.143677290526351E+000,
-2.664833333333335E-010,-5.138504761523716E+000,
-1.998000000000001E-010,-5.133377746791384E+000,
-1.331166666666668E-010,-5.128296229161343E+000,
-6.643333333333345E-011,-5.123260191613362E+000,
2.499999999998699E-013,-5.118269617274678E+000,
6.693333333333319E-011,-5.113324489419690E+000,
1.336166666666665E-010,-5.108424791469668E+000,
2.002999999999998E-010,-5.103570506992435E+000,
2.669833333333331E-010,-5.098761619702092E+000,
3.336666666666665E-010,-5.093998113458701E+000,
4.003499999999998E-010,-5.089279972268013E+000,
4.670333333333331E-010,-5.084607180281166E+000,
5.337166666666664E-010,-5.079979721794412E+000,
6.003999999999999E-010,-5.075397581248815E+000,
6.670833333333332E-010,-5.070860743229991E+000,
7.337666666666665E-010,-5.066369192467822E+000,
8.004499999999999E-010,-5.061922913836166E+000,
8.671333333333332E-010,-5.057521892352614E+000,
9.338166666666665E-010,-5.053166113178189E+000,
1.000500000000000E-009,-5.048855561617104E+000,
1.067183333333333E-009,-5.044590223116476E+000,
1.133866666666666E-009,-5.040370083266085E+000,
1.200550000000000E-009,-5.036195127798092E+000,
1.267233333333333E-009,-5.032065342586800E+000,
1.333916666666666E-009,-5.027980713648390E+000,
1.400600000000000E-009,-5.023941227140673E+000,
1.467283333333333E-009,-5.019946869362834E+000,
1.533966666666666E-009,-5.015997626755194E+000,
1.600650000000000E-009,-5.012093485898957E+000,
1.667333333333333E-009,-5.008234433515979E+000,
1.734016666666666E-009,-5.004420456468515E+000,
1.800700000000000E-009,-5.000651541758994E+000,
1.867383333333333E-009,-4.996927676529773E+000,
1.934066666666666E-009,-4.993248848062916E+000,
2.000750000000000E-009,-4.989615043779959E+000,
2.067433333333333E-009,-4.986026251241682E+000,
2.134116666666666E-009,-4.982482458147887E+000,
2.200800000000000E-009,-4.978983652337169E+000,
2.267483333333333E-009,-4.975529821786709E+000,
2.334166666666667E-009,-4.972120954612046E+000,
2.400850000000000E-009,-4.968757039066860E+000,
2.467533333333333E-009,-4.965438063542774E+000,
2.534216666666666E-009,-4.962164016569128E+000,
2.600900000000000E-009,-4.958934886812770E+000,
2.667583333333333E-009,-4.955750663077873E+000,
2.734266666666667E-009,-4.952611334305701E+000,
2.800950000000000E-009,-4.949516889574432E+000,
2.867633333333333E-009,-4.946467318098952E+000,
2.934316666666666E-009,-4.943462609230649E+000,
3.001000000000000E-009,-4.940502752457233E+000,
3.067683333333333E-009,-4.937587737402545E+000,
3.134366666666667E-009,-4.934717553826348E+000,
3.201049999999999E-009,-4.931892191624167E+000,
3.267733333333333E-009,-4.929111640827079E+000,
3.334416666666667E-009,-4.926375891601557E+000,
3.401100000000000E-009,-4.923684934249265E+000,
3.467783333333334E-009,-4.921038759206897E+000,
3.534466666666666E-009,-4.918437357045990E+000,
3.601150000000000E-009,-4.915880718472761E+000,
3.667833333333333E-009,-4.913368834327931E+000,
3.734516666666667E-009,-4.910901695586551E+000,
3.801200000000000E-009,-4.908479293357847E+000,
3.867883333333333E-009,-4.906101618885049E+000,
3.934566666666666E-009,-4.903768663545223E+000,
4.001250000000000E-009,-4.901480418849125E+000,
4.067933333333333E-009,-4.899236876441029E+000,
4.134616666666667E-009,-4.897038028098590E+000,
4.201300000000000E-009,-4.894883865732662E+000,
4.267983333333333E-009,-4.892774381387176E+000,
4.334666666666666E-009,-4.890709567238979E+000,
4.401350000000000E-009,-4.888689415597678E+000,
4.468033333333333E-009,-4.886713918905514E+000,
4.534716666666667E-009,-4.884783069737207E+000,
4.601399999999999E-009,-4.882896860799820E+000,
4.668083333333333E-009,-4.881055284932615E+000,
4.734766666666666E-009,-4.879258335106931E+000,
4.801450000000000E-009,-4.877506004426030E+000,
4.868133333333333E-009,-4.875798286124991E+000,
4.934816666666666E-009,-4.874135173570550E+000,
5.001499999999999E-009,-4.872516660261002E+000,
5.068183333333333E-009,-4.870942739826051E+000,
5.134866666666666E-009,-4.869413406026713E+000,
5.201550000000000E-009,-4.867928652755161E+000,
5.268233333333333E-009,-4.866488474034644E+000,
5.334916666666666E-009,-4.865092864019341E+000,
5.401600000000000E-009,-4.863741816994255E+000,
5.468283333333333E-009,-4.862435327375108E+000,
5.534966666666667E-009,-4.861173389708223E+000,
5.601650000000000E-009,-4.859955998670412E+000,
5.668333333333333E-009,-4.858783149068887E+000,
5.735016666666666E-009,-4.857654835841127E+000,
5.801700000000000E-009,-4.856571054054800E+000,
5.868383333333333E-009,-4.855531798907658E+000,
5.935066666666667E-009,-4.854537065727433E+000,
6.001750000000000E-009,-4.853586849971742E+000,
6.068433333333333E-009,-4.852681147227991E+000,
6.135116666666666E-009,-4.851819953213296E+000,
6.201800000000000E-009,-4.851003263774375E+000,
6.268483333333333E-009,-4.850231074887478E+000,
6.335166666666667E-009,-4.849503382658276E+000,
6.401849999999999E-009,-4.848820183321815E+000,
6.468533333333333E-009,-4.848181473242392E+000,
6.535216666666667E-009,-4.847587248913507E+000,
6.601899999999999E-009,-4.847037506957769E+000,
6.668583333333333E-009,-4.846532244126832E+000,
6.735266666666666E-009,-4.846071457301300E+000,
6.801950000000000E-009,-4.845655143490688E+000,
6.868633333333332E-009,-4.845283299833318E+000,
6.935316666666666E-009,-4.844955923596277E+000,
7.002000000000000E-009,-4.844673012175336E+000,
7.068683333333333E-009,-4.844434563094894E+000,
7.135366666666665E-009,-4.844240574007919E+000,
7.202049999999999E-009,-4.844091042695872E+000,
7.268733333333333E-009,-4.843985967068671E+000,
7.335416666666667E-009,-4.843925345164622E+000,
7.402099999999999E-009,-4.843909175150367E+000,
7.468783333333332E-009,-4.843937455320837E+000,
7.535466666666665E-009,-4.844010184099195E+000,
7.602149999999999E-009,-4.844127360036791E+000,
7.668833333333333E-009,-4.844288981813122E+000,
7.735516666666665E-009,-4.844495048235784E+000,
7.802199999999999E-009,-4.844745558240423E+000,
7.868883333333332E-009,-4.845040510890710E+000,
7.935566666666666E-009,-4.845379905378284E+000,
8.002249999999998E-009,-4.845763741022740E+000,
8.068933333333332E-009,-4.846192017271572E+000,
8.135616666666666E-009,-4.846664733700155E+000,
8.202299999999999E-009,-4.847181890011711E+000,
8.268983333333331E-009,-4.847743486037277E+000,
8.335666666666665E-009,-4.848349521735687E+000,
8.402349999999999E-009,-4.848999997193542E+000,
8.469033333333333E-009,-4.849694912625188E+000,
8.535716666666665E-009,-4.850434268372700E+000,
8.602399999999998E-009,-4.851218064905853E+000,
8.669083333333332E-009,-4.852046302822122E+000,
8.735766666666666E-009,-4.852918982846653E+000,
8.802449999999998E-009,-4.853836105832261E+000,
8.869133333333332E-009,-4.854797672759410E+000,
8.935816666666665E-009,-4.855803684736212E+000,
9.002499999999999E-009,-4.856854142998415E+000,
9.069183333333331E-009,-4.857949048909406E+000,
9.135866666666665E-009,-4.859088403960194E+000,
9.202549999999999E-009,-4.860272209769428E+000,
9.269233333333332E-009,-4.861500468083382E+000,
9.335916666666664E-009,-4.862773180775969E+000,
9.402599999999998E-009,-4.864090349848731E+000,
9.469283333333332E-009,-4.865451977430873E+000,
9.535966666666666E-009,-4.866858065779246E+000,
9.602649999999998E-009,-4.868308617278364E+000,
9.669333333333331E-009,-4.869803634440422E+000,
9.736016666666665E-009,-4.871343119905315E+000,
9.802699999999999E-009,-4.872927076440641E+000,
9.869383333333333E-009,-4.874555506941731E+000,
9.936066666666665E-009,-4.876228414431663E+000,
1.000275000000000E-008,-4.877945802061285E+000,
1.006943333333333E-008,-4.879707673109248E+000,
1.013611666666667E-008,-4.881514030982017E+000,
1.020280000000000E-008,-4.883364879213921E+000,
1.026948333333333E-008,-4.885260221467151E+000,
1.033616666666667E-008,-4.887200061531829E+000,
1.040285000000000E-008,-4.889184403326017E+000,
1.046953333333333E-008,-4.891213250895759E+000,
1.053621666666667E-008,-4.893286608415125E+000,
1.060290000000000E-008,-4.895404480186241E+000,
1.066958333333333E-008,-4.897566870639342E+000,
1.073626666666666E-008,-4.899773784332808E+000,
1.080295000000000E-008,-4.902025225953209E+000,
1.086963333333333E-008,-4.904321200315362E+000,
1.093631666666667E-008,-4.906661712362370E+000,
1.100300000000000E-008,-4.909046767165675E+000,
1.106968333333333E-008,-4.911476369925124E+000,
1.113636666666667E-008,-4.913950525969007E+000,
1.120305000000000E-008,-4.916469240754124E+000,
1.126973333333333E-008,-4.919032519865848E+000,
1.133641666666667E-008,-4.921640369018174E+000,
1.140310000000000E-008,-4.924292794053796E+000,
1.146978333333333E-008,-4.926989800944162E+000,
1.153646666666666E-008,-4.929731395789548E+000,
1.160315000000000E-008,-4.932517584819123E+000,
1.166983333333333E-008,-4.935348374391023E+000,
1.173651666666667E-008,-4.938223770992424E+000,
1.180320000000000E-008,-4.941143781239608E+000,
1.186988333333333E-008,-4.944108411878061E+000,
1.193656666666667E-008,-4.947117669782533E+000,
1.200325000000000E-008,-4.950171561957121E+000,
1.206993333333333E-008,-4.953270095535364E+000,
1.213661666666666E-008,-4.956413277780317E+000,
1.220330000000000E-008,-4.959601116084635E+000,
1.226998333333333E-008,-4.962833617970683E+000,
1.233666666666667E-008,-4.966110791090596E+000,
1.240335000000000E-008,-4.969432643226400E+000,
1.247003333333333E-008,-4.972799182290093E+000,
1.253671666666667E-008,-4.976210416323737E+000,
1.260340000000000E-008,-4.979666353499568E+000,
1.267008333333333E-008,-4.983167002120098E+000,
1.273676666666667E-008,-4.986712370618205E+000,
1.280345000000000E-008,-4.990302467557250E+000,
1.287013333333333E-008,-4.993937301631176E+000,
1.293681666666666E-008,-4.997616881664627E+000,
1.300350000000000E-008,-5.001341216613046E+000,
1.307018333333333E-008,-5.005110315562797E+000,
1.313686666666667E-008,-5.008924187731277E+000,
1.320355000000000E-008,-5.012782842467036E+000,
1.327023333333333E-008,-5.016686289249888E+000,
1.333691666666667E-008,-5.020634537691045E+000,
1.340360000000000E-008,-5.024627597533224E+000,
1.347028333333333E-008,-5.028665478650789E+000,
1.353696666666666E-008,-5.032748191049866E+000,
1.360365000000000E-008,-5.036875744868477E+000,
1.367033333333333E-008,-5.041048150376668E+000,
1.373701666666666E-008,-5.045265417976649E+000,
1.380370000000000E-008,-5.049527558202923E+000,
1.387038333333333E-008,-5.053834581722427E+000,
1.393706666666667E-008,-5.058186499334670E+000,
1.400375000000000E-008,-5.062583321971874E+000,
1.407043333333333E-008,-5.067025060699119E+000,
1.413711666666667E-008,-5.071511726714488E+000,
1.420380000000000E-008,-5.076043331349216E+000,
1.427048333333333E-008,-5.080619886067842E+000,
1.433716666666666E-008,-5.085241402468348E+000,
1.440385000000000E-008,-5.089907892282334E+000,
1.447053333333333E-008,-5.094619367375161E+000,
1.453721666666667E-008,-5.099375839746106E+000,
1.460390000000000E-008,-5.104177321528534E+000,
1.467058333333333E-008,-5.109023824990056E+000,
1.473726666666666E-008,-5.113915362532683E+000,
1.480395000000000E-008,-5.118851946693015E+000,
1.487063333333333E-008,-5.123833590142387E+000,
1.493731666666667E-008,-5.128860305687055E+000,
1.500400000000000E-008,-5.133932106268364E+000,
1.507068333333333E-008,-5.139049004962922E+000,
1.513736666666667E-008,-5.144211014982777E+000,
1.520405000000000E-008,-5.149418149675605E+000,
1.527073333333333E-008,-5.154670422524886E+000,
1.533741666666667E-008,-5.159967847150082E+000,
1.540410000000000E-008,-5.165310437306832E+000,
1.547078333333333E-008,-5.170698206887135E+000,
1.553746666666667E-008,-5.176131169919547E+000,
1.560415000000000E-008,-5.181609340569369E+000,
1.567083333333333E-008,-5.187132733138842E+000,
1.573751666666667E-008,-5.192701362067338E+000,
1.580420000000000E-008,-5.198315241931576E+000,
1.587088333333333E-008,-5.203974387445810E+000,
1.593756666666667E-008,-5.209678813462039E+000,
1.600425000000000E-008,-5.215428534970201E+000,
1.607093333333333E-008,-5.221223567098404E+000,
1.613761666666667E-008,-5.227063925113114E+000,
1.620430000000000E-008,-5.232949624419382E+000,
1.627098333333333E-008,-5.238880680561055E+000,
1.633766666666667E-008,-5.244857109220984E+000,
1.640435000000000E-008,-5.250878926221267E+000,
1.647103333333333E-008,-5.256946147523437E+000,
1.653771666666667E-008,-5.263058789228725E+000,
1.660440000000000E-008,-5.269216867578253E+000,
1.667108333333333E-008,-5.275420398953282E+000,
1.673776666666667E-008,-5.281669399875439E+000,
1.680445000000000E-008,-5.287963887006941E+000,
1.687113333333333E-008,-5.294303877150848E+000,
1.693781666666667E-008,-5.300689387251286E+000,
1.700450000000000E-008,-5.307120434393694E+000,
1.707118333333333E-008,-5.313597035805069E+000,
1.713786666666667E-008,-5.320119208854202E+000,
1.720455000000000E-008,-5.326686971051936E+000,
1.727123333333333E-008,-5.333300340051410E+000,
1.733791666666667E-008,-5.339959333648313E+000,
1.740460000000000E-008,-5.346663969781134E+000,
1.747128333333333E-008,-5.353414266531429E+000,
1.753796666666667E-008,-5.360210242124072E+000,
1.760465000000000E-008,-5.367051914927516E+000,
1.767133333333333E-008,-5.373939303454066E+000,
1.773801666666667E-008,-5.380872426360136E+000,
1.780470000000000E-008,-5.387851302446527E+000,
1.787138333333333E-008,-5.394875950658686E+000,
1.793806666666667E-008,-5.401946390086992E+000,
1.800475000000000E-008,-5.409062639967037E+000,
1.807143333333333E-008,-5.416224719679884E+000,
1.813811666666667E-008,-5.423432648752364E+000,
1.820480000000000E-008,-5.430686446857358E+000,
1.827148333333333E-008,-5.437986133814087E+000,
1.833816666666667E-008,-5.445331729588388E+000,
1.840485000000000E-008,-5.452723254293025E+000,
1.847153333333333E-008,-5.460160728187958E+000,
1.853821666666667E-008,-5.467644171680667E+000,
1.860490000000000E-008,-5.475173605326424E+000,
1.867158333333333E-008,-5.482749049828626E+000,
1.873826666666667E-008,-5.490370526039063E+000,
1.880495000000000E-008,-5.498038054958259E+000,
1.887163333333333E-008,-5.505751657735758E+000,
1.893831666666667E-008,-5.513511355670445E+000,
1.900500000000000E-008,-5.521317170210863E+000,
1.907168333333333E-008,-5.529169122955528E+000,
1.913836666666667E-008,-5.537067235653243E+000,
1.920505000000000E-008,-5.545011530203433E+000,
1.927173333333333E-008,-5.553002028656457E+000,
1.933841666666667E-008,-5.561038753213948E+000,
1.940510000000000E-008,-5.569121726229136E+000,
1.947178333333333E-008,-5.577250970207181E+000,
1.953846666666667E-008,-5.585426507805516E+000,
1.960515000000000E-008,-5.593648361834177E+000,
1.967183333333333E-008,-5.601916555256155E+000,
1.973851666666667E-008,-5.610231111187725E+000,
1.980520000000000E-008,-5.618592052898812E+000,
1.987188333333333E-008,-5.626999403813326E+000,
1.993856666666667E-008,-5.635453187509521E+000,
2.000525000000000E-008,-5.643953427720346E+000,
2.007193333333333E-008,-5.652500148333811E+000,
2.013861666666667E-008,-5.661093373393343E+000,
2.020530000000000E-008,-5.669733127098145E+000,
2.027198333333333E-008,-5.678419433803573E+000,
2.033866666666667E-008,-5.687152318021497E+000,
2.040535000000000E-008,-5.695931804420679E+000,
2.047203333333333E-008,-5.704757917827145E+000,
2.053871666666667E-008,-5.713630683224568E+000,
2.060540000000000E-008,-5.722550125754635E+000,
2.067208333333333E-008,-5.731516270717456E+000,
2.073876666666667E-008,-5.740529143571923E+000,
2.080545000000000E-008,-5.749588769936122E+000,
2.087213333333333E-008,-5.758695175587714E+000,
2.093881666666667E-008,-5.767848386464331E+000,
2.100550000000000E-008,-5.777048428663985E+000,
2.107218333333333E-008,-5.786295328445456E+000,
2.113886666666667E-008,-5.795589112228708E+000,
2.120555000000000E-008,-5.804929806595288E+000,
2.127223333333333E-008,-5.814317438288748E+000,
2.133891666666666E-008,-5.823752034215048E+000,
2.140560000000000E-008,-5.833233621442973E+000,
2.147228333333333E-008,-5.842762227204569E+000,
2.153896666666667E-008,-5.852337878895544E+000,
2.160565000000000E-008,-5.861960604075717E+000,
2.167233333333333E-008,-5.871630430469427E+000,
2.173901666666667E-008,-5.881347385965975E+000,
2.180570000000000E-008,-5.891111498620067E+000,
2.187238333333333E-008,-5.900922796652233E+000,
2.193906666666667E-008,-5.910781308449300E+000,
2.200575000000000E-008,-5.920687062564804E+000,
2.207243333333333E-008,-5.930640087719466E+000,
2.213911666666667E-008,-5.940640412801622E+000,
2.220580000000000E-008,-5.950688066867695E+000,
2.227248333333333E-008,-5.960783079142649E+000,
2.233916666666667E-008,-5.970925479020443E+000,
2.240585000000000E-008,-5.981115296064509E+000,
2.247253333333333E-008,-5.991352560008209E+000,
2.253921666666667E-008,-6.001637300755311E+000,
2.260590000000000E-008,-6.011969548380471E+000,
2.267258333333333E-008,-6.022349333129703E+000,
2.273926666666667E-008,-6.032776685420859E+000,
2.280595000000000E-008,-6.043251635844129E+000,
2.287263333333333E-008,-6.053774215162510E+000,
2.293931666666667E-008,-6.064344454312316E+000,
2.300600000000000E-008,-6.074962384403661E+000,
2.307268333333333E-008,-6.085628036720970E+000,
2.313936666666667E-008,-6.096341442723469E+000,
2.320605000000000E-008,-6.107102634045704E+000,
2.327273333333333E-008,-6.117911642498037E+000,
2.333941666666667E-008,-6.128768500067181E+000,
2.340610000000000E-008,-6.139673238916692E+000,
2.347278333333333E-008,-6.150625891387504E+000,
2.353946666666666E-008,-6.161626489998453E+000,
2.360615000000000E-008,-6.172675067446804E+000,
2.367283333333333E-008,-6.183771656608779E+000,
2.373951666666667E-008,-6.194916290540094E+000,
2.380620000000000E-008,-6.206109002476507E+000,
2.387288333333333E-008,-6.217349825834344E+000,
2.393956666666667E-008,-6.228638794211058E+000,
2.400625000000000E-008,-6.239975941385774E+000,
2.407293333333333E-008,-6.251361301319855E+000,
2.413961666666666E-008,-6.262794908157436E+000,
2.420630000000000E-008,-6.274276796226011E+000,
2.427298333333333E-008,-6.285807000036983E+000,
2.433966666666667E-008,-6.297385554286234E+000,
2.440635000000000E-008,-6.309012493854718E+000,
2.447303333333333E-008,-6.320687853809009E+000,
2.453971666666667E-008,-6.332411669401898E+000,
2.460640000000000E-008,-6.344183976072983E+000,
2.467308333333333E-008,-6.356004809449249E+000,
2.473976666666667E-008,-6.367874205345666E+000,
2.480645000000000E-008,-6.379792199765785E+000,
2.487313333333333E-008,-6.391758828902334E+000,
2.493981666666667E-008,-6.403774129137842E+000,
2.500650000000000E-008,-6.415838137045220E+000,
2.507318333333333E-008,-6.427950889388401E+000,
2.513986666666667E-008,-6.440112423122944E+000,
2.520655000000000E-008,-6.452322775396659E+000,
2.527323333333333E-008,-6.464581983550235E+000,
2.533991666666667E-008,-6.476890085117873E+000,
2.540660000000000E-008,-6.489247117827907E+000,
2.547328333333333E-008,-6.501653119603463E+000,
2.553996666666667E-008,-6.514108128563088E+000,
2.560665000000000E-008,-6.526612183021406E+000,
2.567333333333333E-008,-6.539165321489763E+000,
2.574001666666666E-008,-6.551767582676888E+000,
2.580670000000000E-008,-6.564419005489553E+000,
2.587338333333333E-008,-6.577119629033237E+000,
2.594006666666667E-008,-6.589869492612801E+000,
2.600675000000000E-008,-6.602668635733155E+000,
2.607343333333333E-008,-6.615517098099940E+000,
2.614011666666667E-008,-6.628414919620212E+000,
2.620680000000000E-008,-6.641362140403129E+000,
2.627348333333333E-008,-6.654358800760644E+000,
2.634016666666666E-008,-6.667404941208205E+000,
2.640685000000000E-008,-6.680500602465449E+000,
2.647353333333333E-008,-6.693645825456911E+000,
2.654021666666667E-008,-6.706840651312747E+000,
2.660690000000000E-008,-6.720085121369430E+000,
