% Version 1.00
%
%time[s];Trc1_S11[dB];
-1.000000000000000E-009,-5.284537895586236E+000,
-9.333166666666668E-010,-5.278981969094227E+000,
-8.666333333333334E-010,-5.273471768639195E+000,
-7.999500000000001E-010,-5.268007275575110E+000,
-7.332666666666668E-010,-5.262588471406455E+000,
-6.665833333333335E-010,-5.257215337787888E+000,
-5.999000000000001E-010,-5.251887856523911E+000,
-5.332166666666668E-010,-5.246606009568531E+000,
-4.665333333333334E-010,-5.241369779024944E+000,
-3.998500000000001E-010,-5.236179147145192E+000,
-3.331666666666668E-010,-5.231034096329863E+000,
-2.664833333333335E-010,-5.225934609127744E+000,
-1.998000000000001E-010,-5.220880668235529E+000,
-1.331166666666668E-010,-5.215872256497494E+000,
-6.643333333333345E-011,-5.210909356905174E+000,
2.499999999998699E-013,-5.205991952597077E+000,
6.693333333333319E-011,-5.201120026858356E+000,
1.336166666666665E-010,-5.196293563120531E+000,
2.002999999999998E-010,-5.191512544961155E+000,
2.669833333333331E-010,-5.186776956103548E+000,
3.336666666666665E-010,-5.182086780416478E+000,
4.003499999999998E-010,-5.177442001913891E+000,
4.670333333333331E-010,-5.172842604754593E+000,
5.337166666666664E-010,-5.168288573241994E+000,
6.003999999999999E-010,-5.163779891823799E+000,
6.670833333333332E-010,-5.159316545091736E+000,
7.337666666666665E-010,-5.154898517781281E+000,
8.004499999999999E-010,-5.150525794771371E+000,
8.671333333333332E-010,-5.146198361084139E+000,
9.338166666666665E-010,-5.141916201884640E+000,
1.000500000000000E-009,-5.137679302480575E+000,
1.067183333333333E-009,-5.133487648322037E+000,
1.133866666666666E-009,-5.129341225001244E+000,
1.200550000000000E-009,-5.125240018252264E+000,
1.267233333333333E-009,-5.121184013950778E+000,
1.333916666666666E-009,-5.117173198113813E+000,
1.400600000000000E-009,-5.113207556899481E+000,
1.467283333333333E-009,-5.109287076606748E+000,
1.533966666666666E-009,-5.105411743675166E+000,
1.600650000000000E-009,-5.101581544684633E+000,
1.667333333333333E-009,-5.097796466355158E+000,
1.734016666666666E-009,-5.094056495546608E+000,
1.800700000000000E-009,-5.090361619258475E+000,
1.867383333333333E-009,-5.086711824629641E+000,
1.934066666666666E-009,-5.083107098938143E+000,
2.000750000000000E-009,-5.079547429600939E+000,
2.067433333333333E-009,-5.076032804173683E+000,
2.134116666666666E-009,-5.072563210350499E+000,
2.200800000000000E-009,-5.069138635963747E+000,
2.267483333333333E-009,-5.065759068983822E+000,
2.334166666666667E-009,-5.062424497518911E+000,
2.400850000000000E-009,-5.059134909814793E+000,
2.467533333333333E-009,-5.055890294254613E+000,
2.534216666666666E-009,-5.052690639358686E+000,
2.600900000000000E-009,-5.049535933784269E+000,
2.667583333333333E-009,-5.046426166325362E+000,
2.734266666666667E-009,-5.043361325912503E+000,
2.800950000000000E-009,-5.040341401612565E+000,
2.867633333333333E-009,-5.037366382628556E+000,
2.934316666666666E-009,-5.034436258299415E+000,
3.001000000000000E-009,-5.031551018099829E+000,
3.067683333333333E-009,-5.028710651640021E+000,
3.134366666666667E-009,-5.025915148665581E+000,
3.201049999999999E-009,-5.023164499057254E+000,
3.267733333333333E-009,-5.020458692830768E+000,
3.334416666666667E-009,-5.017797720136652E+000,
3.401100000000000E-009,-5.015181571260039E+000,
3.467783333333334E-009,-5.012610236620497E+000,
3.534466666666666E-009,-5.010083706771852E+000,
3.601150000000000E-009,-5.007601972402005E+000,
3.667833333333333E-009,-5.005165024332766E+000,
3.734516666666667E-009,-5.002772853519682E+000,
3.801200000000000E-009,-5.000425451051858E+000,
3.867883333333333E-009,-4.998122808151810E+000,
3.934566666666666E-009,-4.995864916175275E+000,
4.001250000000000E-009,-4.993651766611079E+000,
4.067933333333333E-009,-4.991483351080948E+000,
4.134616666666667E-009,-4.989359661339369E+000,
4.201300000000000E-009,-4.987280689273425E+000,
4.267983333333333E-009,-4.985246426902647E+000,
4.334666666666666E-009,-4.983256866378859E+000,
4.401350000000000E-009,-4.981311999986030E+000,
4.468033333333333E-009,-4.979411820140125E+000,
4.534716666666667E-009,-4.977556319388968E+000,
4.601399999999999E-009,-4.975745490412082E+000,
4.668083333333333E-009,-4.973979326020574E+000,
4.734766666666666E-009,-4.972257819156969E+000,
4.801450000000000E-009,-4.970580962895092E+000,
4.868133333333333E-009,-4.968948750439926E+000,
4.934816666666666E-009,-4.967361175127486E+000,
5.001499999999999E-009,-4.965818230424682E+000,
5.068183333333333E-009,-4.964319909929186E+000,
5.134866666666666E-009,-4.962866207369329E+000,
5.201550000000000E-009,-4.961457116603949E+000,
5.268233333333333E-009,-4.960092631622288E+000,
5.334916666666666E-009,-4.958772746543862E+000,
5.401600000000000E-009,-4.957497455618352E+000,
5.468283333333333E-009,-4.956266753225486E+000,
5.534966666666667E-009,-4.955080633874913E+000,
5.601650000000000E-009,-4.953939092206116E+000,
5.668333333333333E-009,-4.952842122988277E+000,
5.735016666666666E-009,-4.951789721120185E+000,
5.801700000000000E-009,-4.950781881630132E+000,
5.868383333333333E-009,-4.949818599675796E+000,
5.935066666666667E-009,-4.948899870544159E+000,
6.001750000000000E-009,-4.948025689651384E+000,
6.068433333333333E-009,-4.947196052542744E+000,
6.135116666666666E-009,-4.946410954892507E+000,
6.201800000000000E-009,-4.945670392503850E+000,
6.268483333333333E-009,-4.944974361308772E+000,
6.335166666666667E-009,-4.944322857367992E+000,
6.401849999999999E-009,-4.943715876870876E+000,
6.468533333333333E-009,-4.943153416135349E+000,
6.535216666666667E-009,-4.942635471607804E+000,
6.601899999999999E-009,-4.942162039863026E+000,
6.668583333333333E-009,-4.941733117604115E+000,
6.735266666666666E-009,-4.941348701662408E+000,
6.801950000000000E-009,-4.941008788997395E+000,
6.868633333333332E-009,-4.940713376696661E+000,
6.935316666666666E-009,-4.940462461975806E+000,
7.002000000000000E-009,-4.940256042178374E+000,
7.068683333333333E-009,-4.940094114775790E+000,
7.135366666666665E-009,-4.939976677367291E+000,
7.202049999999999E-009,-4.939903727679868E+000,
7.268733333333333E-009,-4.939875263568197E+000,
7.335416666666667E-009,-4.939891283014588E+000,
7.402099999999999E-009,-4.939951784128925E+000,
7.468783333333332E-009,-4.940056765148606E+000,
7.535466666666665E-009,-4.940206224438488E+000,
7.602149999999999E-009,-4.940400160490850E+000,
7.668833333333333E-009,-4.940638571925323E+000,
7.735516666666665E-009,-4.940921457488861E+000,
7.802199999999999E-009,-4.941248816055680E+000,
7.868883333333332E-009,-4.941620646627224E+000,
7.935566666666666E-009,-4.942036948332119E+000,
8.002249999999998E-009,-4.942497720426133E+000,
8.068933333333332E-009,-4.943002962292145E+000,
8.135616666666666E-009,-4.943552673440091E+000,
8.202299999999999E-009,-4.944146853506951E+000,
8.268983333333331E-009,-4.944785502256702E+000,
8.335666666666665E-009,-4.945468619580296E+000,
8.402349999999999E-009,-4.946196205495633E+000,
8.469033333333333E-009,-4.946968260147518E+000,
8.535716666666665E-009,-4.947784783807657E+000,
8.602399999999998E-009,-4.948645776874622E+000,
8.669083333333332E-009,-4.949551239873841E+000,
8.735766666666666E-009,-4.950501173457561E+000,
8.802449999999998E-009,-4.951495578404851E+000,
8.869133333333332E-009,-4.952534455621575E+000,
8.935816666666665E-009,-4.953617806140386E+000,
9.002499999999999E-009,-4.954745631120701E+000,
9.069183333333331E-009,-4.955917931848715E+000,
9.135866666666665E-009,-4.957134709737370E+000,
9.202549999999999E-009,-4.958395966326367E+000,
9.269233333333332E-009,-4.959701703282149E+000,
9.335916666666664E-009,-4.961051922397911E+000,
9.402599999999998E-009,-4.962446625593592E+000,
9.469283333333332E-009,-4.963885814915884E+000,
9.535966666666666E-009,-4.965369492538229E+000,
9.602649999999998E-009,-4.966897660760824E+000,
9.669333333333331E-009,-4.968470322010643E+000,
9.736016666666665E-009,-4.970087478841434E+000,
9.802699999999999E-009,-4.971749133933725E+000,
9.869383333333333E-009,-4.973455290094861E+000,
9.936066666666665E-009,-4.975205950258991E+000,
1.000275000000000E-008,-4.977001117487108E+000,
1.006943333333333E-008,-4.978840794967052E+000,
1.013611666666667E-008,-4.980724986013547E+000,
1.020280000000000E-008,-4.982653694068210E+000,
1.026948333333333E-008,-4.984626922699587E+000,
1.033616666666667E-008,-4.986644675603166E+000,
1.040285000000000E-008,-4.988706956601420E+000,
1.046953333333333E-008,-4.990813769643836E+000,
1.053621666666667E-008,-4.992965118806935E+000,
1.060290000000000E-008,-4.995161008294321E+000,
1.066958333333333E-008,-4.997401442436712E+000,
1.073626666666666E-008,-4.999686425691975E+000,
1.080295000000000E-008,-5.002015962645174E+000,
1.086963333333333E-008,-5.004390058008595E+000,
1.093631666666667E-008,-5.006808716621825E+000,
1.100300000000000E-008,-5.009271943451751E+000,
1.106968333333333E-008,-5.011779743592649E+000,
1.113636666666667E-008,-5.014332122266210E+000,
1.120305000000000E-008,-5.016929084821598E+000,
1.126973333333333E-008,-5.019570636735510E+000,
1.133641666666667E-008,-5.022256783612221E+000,
1.140310000000000E-008,-5.024987531183647E+000,
1.146978333333333E-008,-5.027762885309404E+000,
1.153646666666666E-008,-5.030582851976868E+000,
1.160315000000000E-008,-5.033447437301241E+000,
1.166983333333333E-008,-5.036356647525615E+000,
1.173651666666667E-008,-5.039310489021034E+000,
1.180320000000000E-008,-5.042308968286569E+000,
1.186988333333333E-008,-5.045352091949389E+000,
1.193656666666667E-008,-5.048439866764828E+000,
1.200325000000000E-008,-5.051572299616465E+000,
1.206993333333333E-008,-5.054749397516201E+000,
1.213661666666666E-008,-5.057971167604336E+000,
1.220330000000000E-008,-5.061237617149643E+000,
1.226998333333333E-008,-5.064548753549460E+000,
1.233666666666667E-008,-5.067904584329778E+000,
1.240335000000000E-008,-5.071305117145307E+000,
1.247003333333333E-008,-5.074750359779594E+000,
1.253671666666667E-008,-5.078240320145077E+000,
1.260340000000000E-008,-5.081775006283213E+000,
1.267008333333333E-008,-5.085354426364553E+000,
1.273676666666667E-008,-5.088978588688836E+000,
1.280345000000000E-008,-5.092647501685092E+000,
1.287013333333333E-008,-5.096361173911752E+000,
1.293681666666666E-008,-5.100119614056729E+000,
1.300350000000000E-008,-5.103922830937540E+000,
1.307018333333333E-008,-5.107770833501401E+000,
1.313686666666667E-008,-5.111663630825340E+000,
1.320355000000000E-008,-5.115601232116309E+000,
1.327023333333333E-008,-5.119583646711287E+000,
1.333691666666667E-008,-5.123610884077399E+000,
1.340360000000000E-008,-5.127682953812040E+000,
1.347028333333333E-008,-5.131799865642976E+000,
1.353696666666666E-008,-5.135961629428476E+000,
1.360365000000000E-008,-5.140168255157431E+000,
1.367033333333333E-008,-5.144419752949474E+000,
1.373701666666666E-008,-5.148716133055110E+000,
1.380370000000000E-008,-5.153057405855844E+000,
1.387038333333333E-008,-5.157443581864308E+000,
1.393706666666667E-008,-5.161874671724392E+000,
1.400375000000000E-008,-5.166350686211382E+000,
1.407043333333333E-008,-5.170871636232092E+000,
1.413711666666667E-008,-5.175437532825003E+000,
1.420380000000000E-008,-5.180048387160404E+000,
1.427048333333333E-008,-5.184704210540534E+000,
1.433716666666666E-008,-5.189405014399723E+000,
1.440385000000000E-008,-5.194150810304536E+000,
1.447053333333333E-008,-5.198941609953935E+000,
1.453721666666667E-008,-5.203777425179405E+000,
1.460390000000000E-008,-5.208658267945131E+000,
1.467058333333333E-008,-5.213584150348137E+000,
1.473726666666666E-008,-5.218555084618443E+000,
1.480395000000000E-008,-5.223571083119237E+000,
1.487063333333333E-008,-5.228632158347007E+000,
1.493731666666667E-008,-5.233738322931740E+000,
1.500400000000000E-008,-5.238889589637052E+000,
1.507068333333333E-008,-5.244085971360383E+000,
1.513736666666667E-008,-5.249327481133143E+000,
1.520405000000000E-008,-5.254614132120898E+000,
1.527073333333333E-008,-5.259945937623536E+000,
1.533741666666667E-008,-5.265322911075445E+000,
1.540410000000000E-008,-5.270745066045689E+000,
1.547078333333333E-008,-5.276212416238178E+000,
1.553746666666667E-008,-5.281724975491874E+000,
1.560415000000000E-008,-5.287282757780948E+000,
1.567083333333333E-008,-5.292885777214978E+000,
1.573751666666667E-008,-5.298534048039134E+000,
1.580420000000000E-008,-5.304227584634373E+000,
1.587088333333333E-008,-5.309966401517622E+000,
1.593756666666667E-008,-5.315750513341985E+000,
1.600425000000000E-008,-5.321579934896920E+000,
1.607093333333333E-008,-5.327454681108457E+000,
1.613761666666667E-008,-5.333374767039394E+000,
1.620430000000000E-008,-5.339340207889487E+000,
1.627098333333333E-008,-5.345351018995670E+000,
1.633766666666667E-008,-5.351407215832259E+000,
1.640435000000000E-008,-5.357508814011158E+000,
1.647103333333333E-008,-5.363655829282069E+000,
1.653771666666667E-008,-5.369848277532713E+000,
1.660440000000000E-008,-5.376086174789045E+000,
1.667108333333333E-008,-5.382369537215462E+000,
1.673776666666667E-008,-5.388698381115036E+000,
1.680445000000000E-008,-5.395072722929736E+000,
1.687113333333333E-008,-5.401492579240641E+000,
1.693781666666667E-008,-5.407957966768184E+000,
1.700450000000000E-008,-5.414468902372364E+000,
1.707118333333333E-008,-5.421025403052998E+000,
1.713786666666667E-008,-5.427627485949935E+000,
1.720455000000000E-008,-5.434275168343309E+000,
1.727123333333333E-008,-5.440968467653765E+000,
1.733791666666667E-008,-5.447707401442713E+000,
1.740460000000000E-008,-5.454491987412555E+000,
1.747128333333333E-008,-5.461322243406948E+000,
1.753796666666667E-008,-5.468198187411038E+000,
1.760465000000000E-008,-5.475119837551720E+000,
1.767133333333333E-008,-5.482087212097886E+000,
1.773801666666667E-008,-5.489100329460682E+000,
1.780470000000000E-008,-5.496159208193764E+000,
1.787138333333333E-008,-5.503263866993557E+000,
1.793806666666667E-008,-5.510414324699515E+000,
1.800475000000000E-008,-5.517610600294402E+000,
1.807143333333333E-008,-5.524852712904533E+000,
1.813811666666667E-008,-5.532140681800060E+000,
1.820480000000000E-008,-5.539474526395244E+000,
1.827148333333333E-008,-5.546854266248721E+000,
1.833816666666667E-008,-5.554279921063782E+000,
1.840485000000000E-008,-5.561751510688663E+000,
1.847153333333333E-008,-5.569269055116802E+000,
1.853821666666667E-008,-5.576832574487149E+000,
1.860490000000000E-008,-5.584442089084435E+000,
1.867158333333333E-008,-5.592097619339468E+000,
1.873826666666667E-008,-5.599799185829427E+000,
1.880495000000000E-008,-5.607546809278147E+000,
1.887163333333333E-008,-5.615340510556425E+000,
1.893831666666667E-008,-5.623180310682312E+000,
1.900500000000000E-008,-5.631066230821415E+000,
1.907168333333333E-008,-5.638998292287212E+000,
1.913836666666667E-008,-5.646976516541336E+000,
1.920505000000000E-008,-5.655000925193912E+000,
1.927173333333333E-008,-5.663071540003843E+000,
1.933841666666667E-008,-5.671188382879140E+000,
1.940510000000000E-008,-5.679351475877238E+000,
1.947178333333333E-008,-5.687560841205306E+000,
1.953846666666667E-008,-5.695816501220575E+000,
1.960515000000000E-008,-5.704118478430670E+000,
1.967183333333333E-008,-5.712466795493921E+000,
1.973851666666667E-008,-5.720861475219706E+000,
1.980520000000000E-008,-5.729302540568781E+000,
1.987188333333333E-008,-5.737790014653609E+000,
1.993856666666667E-008,-5.746323920738708E+000,
2.000525000000000E-008,-5.754904282240979E+000,
2.007193333333333E-008,-5.763531122730065E+000,
2.013861666666667E-008,-5.772204465928685E+000,
2.020530000000000E-008,-5.780924335712985E+000,
2.027198333333333E-008,-5.789690756112893E+000,
2.033866666666667E-008,-5.798503751312468E+000,
2.040535000000000E-008,-5.807363345650265E+000,
2.047203333333333E-008,-5.816269563619687E+000,
2.053871666666667E-008,-5.825222429869347E+000,
2.060540000000000E-008,-5.834221969203447E+000,
2.067208333333333E-008,-5.843268206582124E+000,
2.073876666666667E-008,-5.852361167121845E+000,
2.080545000000000E-008,-5.861500876095760E+000,
2.087213333333333E-008,-5.870687358934091E+000,
2.093881666666667E-008,-5.879920641224509E+000,
2.100550000000000E-008,-5.889200748712512E+000,
2.107218333333333E-008,-5.898527707301821E+000,
2.113886666666667E-008,-5.907901543054755E+000,
2.120555000000000E-008,-5.917322282192632E+000,
2.127223333333333E-008,-5.926789951096155E+000,
2.133891666666666E-008,-5.936304576305820E+000,
2.140560000000000E-008,-5.945866184522304E+000,
2.147228333333333E-008,-5.955474802606876E+000,
2.153896666666667E-008,-5.965130457581799E+000,
2.160565000000000E-008,-5.974833176630745E+000,
2.167233333333333E-008,-5.984582987099198E+000,
2.173901666666667E-008,-5.994379916494870E+000,
2.180570000000000E-008,-6.004223992488133E+000,
2.187238333333333E-008,-6.014115242912416E+000,
2.193906666666667E-008,-6.024053695764656E+000,
2.200575000000000E-008,-6.034039379205702E+000,
2.207243333333333E-008,-6.044072321560762E+000,
2.213911666666667E-008,-6.054152551319825E+000,
2.220580000000000E-008,-6.064280097138105E+000,
2.227248333333333E-008,-6.074454987836479E+000,
2.233916666666667E-008,-6.084677252401929E+000,
2.240585000000000E-008,-6.094946919987985E+000,
2.247253333333333E-008,-6.105264019915181E+000,
2.253921666666667E-008,-6.115628581671507E+000,
2.260590000000000E-008,-6.126040634912854E+000,
2.267258333333333E-008,-6.136500209463491E+000,
2.273926666666667E-008,-6.147007335316510E+000,
2.280595000000000E-008,-6.157562042634301E+000,
2.287263333333333E-008,-6.168164361749021E+000,
2.293931666666667E-008,-6.178814323163065E+000,
2.300600000000000E-008,-6.189511957549536E+000,
2.307268333333333E-008,-6.200257295752735E+000,
2.313936666666667E-008,-6.211050368788628E+000,
2.320605000000000E-008,-6.221891207845355E+000,
2.327273333333333E-008,-6.232779844283688E+000,
2.333941666666667E-008,-6.243716309637556E+000,
2.340610000000000E-008,-6.254700635614513E+000,
2.347278333333333E-008,-6.265732854096253E+000,
2.353946666666666E-008,-6.276812997139117E+000,
2.360615000000000E-008,-6.287941096974583E+000,
2.367283333333333E-008,-6.299117186009787E+000,
2.373951666666667E-008,-6.310341296828036E+000,
2.380620000000000E-008,-6.321613462189323E+000,
2.387288333333333E-008,-6.332933715030845E+000,
2.393956666666667E-008,-6.344302088467537E+000,
2.400625000000000E-008,-6.355718615792580E+000,
2.407293333333333E-008,-6.367183330477964E+000,
2.413961666666666E-008,-6.378696266174987E+000,
2.420630000000000E-008,-6.390257456714819E+000,
2.427298333333333E-008,-6.401866936109034E+000,
2.433966666666667E-008,-6.413524738550159E+000,
2.440635000000000E-008,-6.425230898412227E+000,
2.447303333333333E-008,-6.436985450251326E+000,
2.453971666666667E-008,-6.448788428806151E+000,
2.460640000000000E-008,-6.460639868998578E+000,
2.467308333333333E-008,-6.472539805934222E+000,
2.473976666666667E-008,-6.484488274903007E+000,
2.480645000000000E-008,-6.496485311379734E+000,
2.487313333333333E-008,-6.508530951024674E+000,
2.493981666666667E-008,-6.520625229684120E+000,
2.500650000000000E-008,-6.532768183390996E+000,
2.507318333333333E-008,-6.544959848365443E+000,
2.513986666666667E-008,-6.557200261015395E+000,
2.520655000000000E-008,-6.569489457937197E+000,
2.527323333333333E-008,-6.581827475916183E+000,
2.533991666666667E-008,-6.594214351927304E+000,
2.540660000000000E-008,-6.606650123135716E+000,
2.547328333333333E-008,-6.619134826897406E+000,
2.553996666666667E-008,-6.631668500759798E+000,
2.560665000000000E-008,-6.644251182462390E+000,
2.567333333333333E-008,-6.656882909937357E+000,
2.574001666666666E-008,-6.669563721310199E+000,
2.580670000000000E-008,-6.682293654900366E+000,
2.587338333333333E-008,-6.695072749221899E+000,
2.594006666666667E-008,-6.707901042984068E+000,
2.600675000000000E-008,-6.720778575092016E+000,
2.607343333333333E-008,-6.733705384647424E+000,
2.614011666666667E-008,-6.746681510949144E+000,
2.620680000000000E-008,-6.759706993493881E+000,
2.627348333333333E-008,-6.772781871976835E+000,
2.634016666666666E-008,-6.785906186292388E+000,
2.640685000000000E-008,-6.799079976534761E+000,
2.647353333333333E-008,-6.812303282998702E+000,
2.654021666666667E-008,-6.825576146180165E+000,
2.660690000000000E-008,-6.838898606776990E+000,
